INDEX VERSION 1.131+C:\Users\ramannpr\support_works\chandu-java-springboot\.metadata\.plugins\org.eclipse.jdt.core
857357093.index
2915072775.index
3863328446.index
1394594445.index
1951950132.index
2532292776.index
3454296904.index
3556922869.index
4244043495.index
3049543270.index
2867978721.index
41742084.index
555442750.index
1988737790.index
381549808.index
2507475985.index
2167675953.index
1620146765.index
3573622524.index
965832995.index
1957876765.index
1575816604.index
2112741047.index
27145952.index
3813450306.index
3927588645.index
1756086121.index
751887502.index
410254888.index
602885882.index
262629720.index
676535794.index
3885883768.index
207341042.index
1058692400.index
1793950835.index
1114514500.index
2993760229.index
2518777666.index
3024095625.index
1997816215.index
1367400509.index
2034769959.index
2377331088.index
3096650223.index
3915658389.index
2313958777.index
962547040.index
692542439.index
1005053559.index
1869671001.index
2824924681.index
3974896339.index
2775196451.index
1068415008.index
2487049068.index
1710102452.index
124281760.index
3579271641.index
853294408.index
2792506540.index
2930142926.index
179824445.index
3592575225.index
3503238276.index
358866688.index
2168459144.index
462663587.index
555304337.index
2273437915.index
1993781368.index
3089419034.index
626710361.index
1426823354.index
3141256530.index
3008087201.index
3749055833.index
43643831.index
398852022.index
612732444.index
3709201543.index
3726566451.index
3934181729.index
2676596651.index
1228796139.index
1190930684.index
4016404235.index
323151082.index
3861976282.index
2458137043.index
4174215151.index
1039947775.index
786902668.index
416326669.index
330910920.index
2733570079.index
494682424.index
4050138530.index
1310930582.index
2088757168.index
1898360053.index
1972697557.index
669052305.index
3089142448.index
890392424.index
4085636665.index
4021318966.index
3674052057.index
3324931613.index
2729289890.index
3554285876.index
1614806129.index
4034046130.index
315723234.index
1655230666.index
3374779233.index
986730341.index
881775183.index
3722570653.index
694669679.index
3105904648.index
4208700202.index
735252225.index
4183334167.index
2669873715.index
3324278907.index
1159230734.index
126259613.index
2386692881.index
827091773.index
799267105.index
3962763584.index
2141804596.index
2114934741.index
1752862138.index
4183636377.index
1588962079.index
446869445.index
117517524.index
3602764609.index
4012992049.index
2513380141.index
2832459767.index
1487470015.index
1887114750.index
3357354403.index
2762973419.index
2513897111.index
332552512.index
4212076456.index
1291324173.index
45900687.index
1043540684.index
4119242288.index
3470313831.index
956413570.index
1214367305.index
924709048.index
1846568206.index
731968244.index
3020022.index
1056678392.index
2366187434.index
2101847292.index
1225148049.index
2169407369.index
3645188249.index
3515129874.index
937209643.index
4024947453.index
721664578.index
363343538.index
1879276555.index
1417738056.index
3280129172.index
3695637975.index
3142859894.index
1366106816.index
1238623672.index
437565444.index
2698540235.index
258828259.index
3373914127.index
3907688511.index
2080692850.index
3175024432.index
374393369.index
3662550970.index
3905302235.index
2950603888.index
2547374296.index
2991459185.index
2915718050.index
3144653172.index
1158433969.index
3039184894.index
362199794.index
321030164.index
656741405.index
1408393328.index
1913755281.index
3967280502.index
2836531989.index
3455340615.index
4137406170.index
3880231276.index
2841650353.index
1278731301.index
2606799571.index
2127084088.index
234927595.index
2798818496.index
1000469427.index
2950033351.index
657863722.index
1094762268.index
3054278450.index
1068494516.index
4219279280.index
3664434139.index
3961190441.index
1417972428.index
717849359.index
3502893085.index
1650732884.index
319198531.index
111483760.index
3962812789.index
1253688453.index
1515444387.index
1414903871.index
1204658825.index
2176693409.index
3753146388.index
2145729911.index
204044609.index
2863536571.index
3796863028.index
2319844582.index
3597194906.index
308164684.index
3603690196.index
1495270895.index
2054705722.index
2244897288.index
1876401774.index
1430213936.index
3478611712.index
785988714.index
2811098500.index
191844499.index
709509821.index
106914297.index
2552238294.index
